# time [s],mass_flux
0.000000000000000000e+00 4.536263802096990213e-05
6.000000000000000000e+01 4.427509775147898171e-05
1.200000000000000000e+02 4.111896016861206688e-05
1.800000000000000000e+02 3.619218732972193358e-05
2.400000000000000000e+02 2.988355345398426000e-05
3.000000000000000000e+02 2.278593778104654569e-05
3.600000000000000000e+02 1.564149702948298517e-05
4.200000000000000000e+02 9.339800818158483389e-06
4.800000000000000000e+02 4.805007422485988307e-06
5.400000000000000000e+02 3.089419656654536407e-06
6.000000000000000000e+02 5.137791483628298425e-06
6.600000000000000000e+02 7.127324119460951378e-06
7.200000000000000000e+02 6.917616030332699691e-06
7.800000000000000000e+02 6.674757767058965174e-06
8.400000000000000000e+02 6.437560438653360401e-06
9.000000000000000000e+02 6.163103737890223814e-06
9.600000000000000000e+02 5.890717820392035690e-06
1.020000000000000000e+03 5.640127962576700694e-06
1.080000000000000000e+03 5.402986966579525677e-06
1.140000000000000000e+03 5.155120072122076887e-06
1.200000000000000000e+03 4.922137026461786388e-06
1.260000000000000000e+03 4.708962152310502021e-06
1.320000000000000000e+03 4.500513340962290464e-06
1.380000000000000000e+03 4.289598826884073863e-06
1.440000000000000000e+03 4.092058132351686726e-06
1.500000000000000000e+03 3.910396138626142043e-06
1.560000000000000000e+03 3.743864622280656373e-06
1.620000000000000000e+03 3.582667366073627505e-06
1.680000000000000000e+03 3.429189795250234352e-06
1.740000000000000000e+03 3.285895213596222741e-06
1.800000000000000000e+03 3.150827692452874262e-06
1.860000000000000000e+03 3.019210680272081408e-06
1.920000000000000000e+03 2.890021808487995779e-06
1.980000000000000000e+03 2.745603868101980726e-06
2.040000000000000000e+03 2.600591914891206381e-06
2.100000000000000000e+03 2.476275790101923862e-06
2.160000000000000000e+03 2.365459446861856986e-06
2.220000000000000000e+03 2.254212459851993953e-06
2.280000000000000000e+03 2.149905425284059315e-06
2.340000000000000000e+03 2.057865444491857031e-06
2.400000000000000000e+03 1.981645452167831458e-06
2.460000000000000000e+03 1.922109540429727419e-06
2.520000000000000000e+03 1.865183727584559562e-06
2.580000000000000000e+03 1.786661591726294634e-06
2.640000000000000000e+03 1.696494714219900837e-06
2.700000000000000000e+03 1.610029366513562271e-06
2.760000000000000000e+03 1.534281240504769800e-06
2.820000000000000000e+03 1.469383105240875927e-06
2.880000000000000000e+03 1.409972265012948093e-06
2.940000000000000000e+03 1.348877559222552962e-06
3.000000000000000000e+03 1.288841117429529369e-06
3.060000000000000000e+03 1.231827960196322330e-06
3.120000000000000000e+03 1.186246244557830281e-06
3.180000000000000000e+03 1.162881652440006781e-06
3.240000000000000000e+03 1.146596059629893677e-06
3.300000000000000000e+03 1.111029866569617117e-06
3.360000000000000000e+03 1.062682893900727738e-06
3.420000000000000000e+03 1.015684707837139366e-06
3.480000000000000000e+03 9.705987655622117024e-07
3.540000000000000000e+03 9.235832925224558440e-07
3.600000000000000000e+03 8.773276288278521046e-07
3.660000000000000000e+03 8.294592566309080091e-07
3.720000000000000000e+03 7.867557417130644108e-07
3.780000000000000000e+03 7.606518182755429965e-07
3.840000000000000000e+03 7.411609190290723934e-07
3.900000000000000000e+03 7.125347671431092565e-07
3.960000000000000000e+03 6.820627876822521165e-07
4.020000000000000000e+03 6.601272564855953276e-07
4.080000000000000000e+03 6.469813081235437462e-07
4.140000000000000000e+03 6.407267977546940430e-07
4.200000000000000000e+03 6.363971248396493651e-07
4.260000000000000000e+03 6.285673985834345015e-07
4.320000000000000000e+03 6.152534924329143257e-07
4.380000000000000000e+03 5.885497283522066015e-07
4.440000000000000000e+03 5.592490928466002955e-07
4.500000000000000000e+03 5.437752083382739867e-07
4.560000000000000000e+03 5.318943687437127647e-07
4.620000000000000000e+03 5.136738768575651117e-07
4.680000000000000000e+03 4.930213688695134031e-07
4.740000000000000000e+03 4.668550950642646356e-07
4.800000000000000000e+03 4.399587024142096793e-07
4.860000000000000000e+03 4.222949779209975118e-07
4.920000000000000000e+03 4.111659807682179320e-07
4.980000000000000000e+03 3.999054314697948946e-07
5.040000000000000000e+03 3.928112874399743683e-07
5.100000000000000000e+03 3.990176287827284365e-07
5.160000000000000000e+03 4.100429104166090842e-07
5.220000000000000000e+03 4.117588559166740951e-07
5.280000000000000000e+03 4.058030600591973626e-07
5.340000000000000000e+03 3.955245060770977043e-07
5.400000000000000000e+03 3.831918410173236105e-07
5.460000000000000000e+03 3.707852840376536245e-07
5.520000000000000000e+03 3.608360223916067999e-07
5.580000000000000000e+03 3.553275805194417925e-07
5.640000000000000000e+03 3.479462983895622646e-07
5.700000000000000000e+03 3.359940260306135434e-07
5.760000000000000000e+03 3.219215591267166623e-07
5.820000000000000000e+03 3.017945561998145570e-07
5.880000000000000000e+03 2.806536016105777723e-07
5.940000000000000000e+03 2.688205951265954619e-07
6.000000000000000000e+03 2.623950878838930015e-07
6.060000000000000000e+03 2.513137273627554241e-07
6.120000000000000000e+03 2.403885485708444852e-07
6.180000000000000000e+03 2.449391240059843079e-07
6.240000000000000000e+03 2.579631413515298703e-07
6.300000000000000000e+03 2.660041553367333000e-07
6.360000000000000000e+03 2.699999281682335142e-07
6.420000000000000000e+03 2.600381837725491755e-07
6.480000000000000000e+03 2.379353064073003101e-07
6.540000000000000000e+03 2.235424742823892204e-07
6.600000000000000000e+03 2.191147266948511424e-07
6.660000000000000000e+03 2.166301049459473984e-07
6.720000000000000000e+03 2.141194845989667443e-07
6.780000000000000000e+03 2.099207712237347076e-07
6.840000000000000000e+03 2.032801512511897874e-07
6.900000000000000000e+03 1.952004816225287956e-07
6.960000000000000000e+03 1.903626254815893816e-07
7.020000000000000000e+03 1.926428457708317260e-07
7.080000000000000000e+03 1.972005229683408832e-07
7.140000000000000000e+03 1.990402692036598712e-07
7.200000000000000000e+03 2.016610318317271959e-07
7.260000000000000000e+03 2.134431692888945546e-07
7.320000000000000000e+03 2.226449237055931935e-07
7.380000000000000000e+03 2.104704495304871980e-07
7.440000000000000000e+03 1.874299874233750826e-07
7.500000000000000000e+03 1.677131976273591753e-07
7.560000000000000000e+03 1.567487737552248394e-07
7.620000000000000000e+03 1.567917867941201060e-07
7.680000000000000000e+03 1.529592689330435640e-07
7.740000000000000000e+03 1.376579531299160762e-07
7.800000000000000000e+03 1.226265676761086281e-07
7.860000000000000000e+03 1.105444639466771876e-07
7.920000000000000000e+03 1.013858588365780922e-07
7.980000000000000000e+03 9.943281715036638626e-08
8.040000000000000000e+03 1.034254463190734379e-07
8.100000000000000000e+03 1.110996943673849078e-07
8.160000000000000000e+03 1.219356844045671085e-07
8.220000000000000000e+03 1.348598746124703046e-07
8.280000000000000000e+03 1.482476568378715063e-07
8.340000000000000000e+03 1.617592081083108437e-07
8.400000000000000000e+03 1.705159060754940013e-07
8.460000000000000000e+03 1.710411829676065268e-07
8.520000000000000000e+03 1.682070442298254689e-07
8.580000000000000000e+03 1.593086564383935322e-07
8.640000000000000000e+03 1.419648154759436357e-07
8.700000000000000000e+03 1.195596077532118958e-07
8.760000000000000000e+03 9.964800276757371355e-08
8.820000000000000000e+03 9.222517485267446744e-08
8.880000000000000000e+03 9.172127613498616142e-08
8.940000000000000000e+03 8.631847654274582252e-08
9.000000000000000000e+03 8.131469078279237803e-08
9.060000000000000000e+03 8.908181315012301073e-08
9.120000000000000000e+03 1.047848142650752768e-07
9.180000000000000000e+03 1.164198080234113268e-07
9.240000000000000000e+03 1.241911451805402552e-07
9.300000000000000000e+03 1.318593118893055621e-07
9.360000000000000000e+03 1.393463250315870467e-07
9.420000000000000000e+03 1.467911459097528027e-07
9.480000000000000000e+03 1.516255921906694586e-07
9.540000000000000000e+03 1.480419719271700433e-07
9.600000000000000000e+03 1.376354974905245661e-07
9.660000000000000000e+03 1.271309325363509172e-07
9.720000000000000000e+03 1.217975945812254846e-07
9.780000000000000000e+03 1.232160076124691774e-07
9.840000000000000000e+03 1.246036304951480414e-07
9.900000000000000000e+03 1.208990964689928590e-07
9.960000000000000000e+03 1.124633183004588336e-07
1.002000000000000000e+04 1.008577139860792356e-07
1.008000000000000000e+04 9.223738506707509747e-08
1.014000000000000000e+04 9.491750968177940896e-08
1.020000000000000000e+04 1.002251912924531637e-07
1.026000000000000000e+04 9.239895729063881060e-08
1.032000000000000000e+04 7.934968923453212309e-08
1.038000000000000000e+04 7.458821269020356028e-08
1.044000000000000000e+04 7.455299859682727481e-08
1.050000000000000000e+04 7.621957718312541737e-08
1.056000000000000000e+04 7.846141436416154964e-08
1.062000000000000000e+04 6.999455766668808551e-08
1.068000000000000000e+04 5.631408522716966497e-08
1.074000000000000000e+04 5.842609103766166143e-08
1.080000000000000000e+04 7.115121957598273499e-08
1.086000000000000000e+04 7.823580902592567532e-08
1.092000000000000000e+04 8.143222954459786913e-08
1.098000000000000000e+04 8.290936125250910182e-08
1.104000000000000000e+04 8.296734154871709902e-08
1.110000000000000000e+04 8.614747016185306198e-08
1.116000000000000000e+04 8.992035983890041763e-08
1.122000000000000000e+04 9.335372759999841434e-08
1.128000000000000000e+04 9.398336015205151716e-08
1.134000000000000000e+04 7.951754561448517509e-08
1.140000000000000000e+04 5.902289259555773640e-08
1.146000000000000000e+04 5.104570573901337780e-08
1.152000000000000000e+04 5.029207597287775591e-08
1.158000000000000000e+04 5.183199220353397168e-08
1.164000000000000000e+04 5.549788326230233140e-08
1.170000000000000000e+04 5.318472106341249610e-08
1.176000000000000000e+04 5.031579921833242098e-08
1.182000000000000000e+04 5.831425333373101414e-08
1.188000000000000000e+04 6.519699871903998643e-08
1.194000000000000000e+04 6.105072620199053796e-08
1.200000000000000000e+04 5.685914627923882387e-08
1.206000000000000000e+04 5.227725146997579681e-08
1.212000000000000000e+04 4.648386128693653345e-08
1.218000000000000000e+04 4.890609147086087121e-08
1.224000000000000000e+04 5.665404129813853976e-08
1.230000000000000000e+04 6.860956823533118842e-08
1.236000000000000000e+04 8.163761656784496146e-08
1.242000000000000000e+04 8.218317832415925673e-08
1.248000000000000000e+04 7.688565023714536801e-08
1.254000000000000000e+04 7.944681637139201576e-08
1.260000000000000000e+04 8.192081558242221041e-08
1.266000000000000000e+04 7.028245633028490052e-08
1.272000000000000000e+04 5.199352639883478391e-08
1.278000000000000000e+04 4.830515117954595756e-08
1.284000000000000000e+04 6.127741217415402287e-08
1.290000000000000000e+04 7.865148870754105088e-08
1.296000000000000000e+04 9.014169017613604244e-08
1.302000000000000000e+04 9.241372806898743436e-08
1.308000000000000000e+04 8.816874390749869302e-08
1.314000000000000000e+04 7.720588869771029048e-08
1.320000000000000000e+04 6.747863555784045830e-08
1.326000000000000000e+04 7.199802788664082915e-08
1.332000000000000000e+04 8.027061446506524688e-08
1.338000000000000000e+04 7.649872619671959132e-08
1.344000000000000000e+04 6.298959605362506081e-08
1.350000000000000000e+04 4.339063656876225327e-08
1.356000000000000000e+04 2.836525956710351963e-08
1.362000000000000000e+04 3.273896911292449321e-08
1.368000000000000000e+04 4.703007269127464738e-08
1.374000000000000000e+04 5.152416677427427820e-08
1.380000000000000000e+04 5.077375672724985271e-08
1.386000000000000000e+04 6.301701120130709560e-08
1.392000000000000000e+04 7.652616669652869191e-08
1.398000000000000000e+04 7.215195327730711036e-08
1.404000000000000000e+04 6.298877210969368087e-08
1.410000000000000000e+04 5.888394080016638313e-08
1.416000000000000000e+04 5.492087220218956184e-08
1.422000000000000000e+04 5.121964345853065846e-08
1.428000000000000000e+04 4.886079357215341165e-08
1.434000000000000000e+04 5.694610087834263801e-08
1.440000000000000000e+04 6.730193445729164923e-08
1.446000000000000000e+04 5.053904047133503008e-08
1.452000000000000000e+04 1.702232221993895569e-08
1.458000000000000000e+04 -3.641001615899807068e-09
1.464000000000000000e+04 -1.174765857530658819e-08
1.470000000000000000e+04 -1.469855649725010162e-08
1.476000000000000000e+04 -1.550856937608087664e-08
1.482000000000000000e+04 -2.012125433383282722e-08
1.488000000000000000e+04 -1.956118799641390665e-08
1.494000000000000000e+04 -4.525017330120498761e-09
1.500000000000000000e+04 1.236513478628377231e-08
1.506000000000000000e+04 2.201536501948838795e-08
1.512000000000000000e+04 3.228454505556936965e-08
1.518000000000000000e+04 4.509540495337666080e-08
1.524000000000000000e+04 5.928283104091372746e-08
1.530000000000000000e+04 7.865269610216731942e-08
1.536000000000000000e+04 9.757596140374074629e-08
1.542000000000000000e+04 1.142192567682179087e-07
1.548000000000000000e+04 1.221637235461553654e-07
1.554000000000000000e+04 9.902070577952193221e-08
1.560000000000000000e+04 6.526825084938421093e-08
1.566000000000000000e+04 6.230982017909164586e-08
1.572000000000000000e+04 7.060216873432220352e-08
1.578000000000000000e+04 5.621023344065320406e-08
1.584000000000000000e+04 2.992118883000830045e-08
1.590000000000000000e+04 1.363151432869095304e-08
1.596000000000000000e+04 9.472689343653581748e-09
1.602000000000000000e+04 1.017598564647141376e-08
1.608000000000000000e+04 1.263176935996679216e-08
1.614000000000000000e+04 2.422684303789421794e-08
1.620000000000000000e+04 4.068783448351018953e-08
1.626000000000000000e+04 4.219466302982161148e-08
1.632000000000000000e+04 3.338661434551562736e-08
1.638000000000000000e+04 3.251415602848734519e-08
1.644000000000000000e+04 3.734462202672070633e-08
1.650000000000000000e+04 3.510210984552283038e-08
1.656000000000000000e+04 2.770715024744845913e-08
1.662000000000000000e+04 2.749643611019827526e-08
1.668000000000000000e+04 4.201672284452111971e-08
1.674000000000000000e+04 7.288882212383736956e-08
1.680000000000000000e+04 9.745124799228410215e-08
1.686000000000000000e+04 9.670960344036749227e-08
1.692000000000000000e+04 8.598275427558108816e-08
1.698000000000000000e+04 7.242638045868422763e-08
1.704000000000000000e+04 4.847174629170344039e-08
1.710000000000000000e+04 1.681959400019330948e-08
1.716000000000000000e+04 -9.874361979411210710e-09
1.722000000000000000e+04 -2.470609632693759219e-08
1.728000000000000000e+04 -3.409364374791595371e-08
1.734000000000000000e+04 -4.518136765094524405e-08
1.740000000000000000e+04 -4.626430876719193478e-08
1.746000000000000000e+04 -1.320223323531798627e-08
1.752000000000000000e+04 3.297175860780994638e-08
1.758000000000000000e+04 4.962262157983755085e-08
1.764000000000000000e+04 4.577956991340089224e-08
1.770000000000000000e+04 4.926064719345880814e-08
1.776000000000000000e+04 5.329468904856808692e-08
1.782000000000000000e+04 3.843840751182912515e-08
1.788000000000000000e+04 1.393055207958571218e-08
1.794000000000000000e+04 -1.106989185626525154e-08
1.800000000000000000e+04 -3.198402103656551945e-08
1.806000000000000000e+04 -3.836876524085165352e-08
1.812000000000000000e+04 -2.855172757151243806e-08
1.818000000000000000e+04 -1.320601386957994450e-09
1.824000000000000000e+04 3.109918137846223616e-08
1.830000000000000000e+04 5.312969745802478051e-08
1.836000000000000000e+04 6.816251530654072123e-08
1.842000000000000000e+04 8.358023536409667905e-08
1.848000000000000000e+04 9.804497560556028257e-08
1.854000000000000000e+04 1.129398874336514259e-07
1.860000000000000000e+04 1.178270914742506629e-07
1.866000000000000000e+04 8.994461547875094495e-08
1.872000000000000000e+04 5.160165235701209472e-08
1.878000000000000000e+04 3.362694292680990695e-08
1.884000000000000000e+04 2.060885797712938632e-08
1.890000000000000000e+04 5.622865492505042464e-09
1.896000000000000000e+04 -9.291868521770953275e-10
1.902000000000000000e+04 -2.078157562376316270e-09
1.908000000000000000e+04 -2.432909763918480493e-09
1.914000000000000000e+04 -6.910512292375061586e-10
1.920000000000000000e+04 1.527614114966138007e-09
1.926000000000000000e+04 1.082086749819364983e-08
1.932000000000000000e+04 2.605976004620183498e-08
1.938000000000000000e+04 2.447163042317786580e-08
1.944000000000000000e+04 1.086933124261711372e-08
1.950000000000000000e+04 4.753037457603488829e-09
1.956000000000000000e+04 4.311390868150461256e-09
1.962000000000000000e+04 1.022710819446136995e-08
1.968000000000000000e+04 2.036728397289714685e-08
1.974000000000000000e+04 2.029102162985463554e-08
1.980000000000000000e+04 1.912311288671922798e-08
1.986000000000000000e+04 3.437021952135219667e-08
1.992000000000000000e+04 5.443716961633955091e-08
1.998000000000000000e+04 6.976857521573037245e-08
2.004000000000000000e+04 7.731216161160953575e-08
2.010000000000000000e+04 6.762701517249022827e-08
2.016000000000000000e+04 5.169306892927881434e-08
2.022000000000000000e+04 4.340635805158551748e-08
2.028000000000000000e+04 3.768572845019705533e-08
2.034000000000000000e+04 3.755203721951633027e-08
2.040000000000000000e+04 3.660682148983189805e-08
2.046000000000000000e+04 9.784174984984496062e-09
2.052000000000000000e+04 -2.245165280481470068e-08
2.058000000000000000e+04 -2.223813725838212415e-08
2.064000000000000000e+04 -5.169278054956916174e-09
2.070000000000000000e+04 5.746704255765299282e-09
2.076000000000000000e+04 1.049279840189397095e-08
2.082000000000000000e+04 1.121566970968235246e-08
2.088000000000000000e+04 1.696490917744747403e-08
2.094000000000000000e+04 3.659426585300652643e-08
2.100000000000000000e+04 5.815984308379827865e-08
2.106000000000000000e+04 6.653231384211578895e-08
2.112000000000000000e+04 6.367300045007355433e-08
2.118000000000000000e+04 5.251369483894858488e-08
2.124000000000000000e+04 3.917831544353937263e-08
2.130000000000000000e+04 3.375761408620990790e-08
2.136000000000000000e+04 3.115322892706391658e-08
2.142000000000000000e+04 2.175609206710417613e-08
2.148000000000000000e+04 5.600593655818939659e-09
2.154000000000000000e+04 -1.785643228791724545e-08
2.160000000000000000e+04 -3.236732606208908927e-08
2.166000000000000000e+04 -1.036607900392544219e-08
2.172000000000000000e+04 2.529305809374416924e-08
2.178000000000000000e+04 3.358164819729226023e-08
2.184000000000000000e+04 2.522728835900116430e-08
2.190000000000000000e+04 2.419026309933683909e-08
2.196000000000000000e+04 2.797397813122380581e-08
2.202000000000000000e+04 3.489472634293394237e-08
2.208000000000000000e+04 4.221175352712962512e-08
2.214000000000000000e+04 3.481892984504721367e-08
2.220000000000000000e+04 1.881498640120206452e-08
2.226000000000000000e+04 6.880359117133000494e-09
2.232000000000000000e+04 -6.226258601395017492e-10
2.238000000000000000e+04 4.577616639103677926e-09
2.244000000000000000e+04 1.702039862781749923e-08
2.250000000000000000e+04 1.581659445315115038e-08
2.256000000000000000e+04 7.211096523769902787e-09
2.262000000000000000e+04 1.205354139822934975e-08
2.268000000000000000e+04 2.689036201462564262e-08
2.274000000000000000e+04 4.121060468480064454e-08
2.280000000000000000e+04 4.669628352319183432e-08
2.286000000000000000e+04 3.100119543842438593e-08
2.292000000000000000e+04 1.418247291737679760e-08
2.298000000000000000e+04 2.319528432903313279e-08
2.304000000000000000e+04 4.009020264381629841e-08
2.310000000000000000e+04 5.006870479020714281e-08
2.316000000000000000e+04 5.362204511653166261e-08
2.322000000000000000e+04 3.635642177934406618e-08
2.328000000000000000e+04 1.202191146088095293e-08
2.334000000000000000e+04 7.219668709132342536e-09
2.340000000000000000e+04 1.506357630690293540e-08
2.346000000000000000e+04 3.118218421603519070e-08
2.352000000000000000e+04 4.786334613926524061e-08
2.358000000000000000e+04 4.580874386424282131e-08
2.364000000000000000e+04 3.693708671327853978e-08
2.370000000000000000e+04 3.783156334571668325e-08
2.376000000000000000e+04 3.791755773347754333e-08
2.382000000000000000e+04 3.526612221047699901e-08
2.388000000000000000e+04 3.691132262247922777e-08
