# time [s],mass_flux [gH2O/s]
0.000000000000000000e+00 5.164983932024793252e-05
6.000000000000000000e+01 5.060533948369946709e-05
1.200000000000000000e+02 4.759264642882806291e-05
1.800000000000000000e+02 4.293530841633386863e-05
2.400000000000000000e+02 3.697750950696019061e-05
3.000000000000000000e+02 3.028901634278014722e-05
3.600000000000000000e+02 2.356599512455039849e-05
4.200000000000000000e+02 1.762763858895270223e-05
4.800000000000000000e+02 1.321206695166244686e-05
5.400000000000000000e+02 1.114557049830706552e-05
6.000000000000000000e+02 1.191624024194671698e-05
6.600000000000000000e+02 1.289332933210457465e-05
7.200000000000000000e+02 1.251396739887303650e-05
7.800000000000000000e+02 1.207463680061004082e-05
8.400000000000000000e+02 1.164554683352470100e-05
9.000000000000000000e+02 1.114905466184345114e-05
9.600000000000000000e+02 1.065630853708937202e-05
1.020000000000000000e+03 1.020299148430254196e-05
1.080000000000000000e+03 9.774003422542236464e-06
1.140000000000000000e+03 9.325612210468505942e-06
1.200000000000000000e+03 8.904145880869277302e-06
1.260000000000000000e+03 8.518512533529805014e-06
1.320000000000000000e+03 8.141428633800379739e-06
1.380000000000000000e+03 7.759884277833370786e-06
1.440000000000000000e+03 7.402533161423909680e-06
1.500000000000000000e+03 7.073906614775531301e-06
1.560000000000000000e+03 6.772651101705564830e-06
1.620000000000000000e+03 6.481045265227756630e-06
1.680000000000000000e+03 6.203404339608318249e-06
1.740000000000000000e+03 5.944184441396156015e-06
1.800000000000000000e+03 5.699847295647398482e-06
1.860000000000000000e+03 5.461752120612557196e-06
1.920000000000000000e+03 5.228049451554486918e-06
1.980000000000000000e+03 4.966797397396490418e-06
2.040000000000000000e+03 4.704470774038553221e-06
2.100000000000000000e+03 4.479582904294797205e-06
2.160000000000000000e+03 4.279116139373206556e-06
2.220000000000000000e+03 4.077870339872525712e-06
2.280000000000000000e+03 3.889178914338297680e-06
2.340000000000000000e+03 3.722678589086064579e-06
2.400000000000000000e+03 3.584796622971749437e-06
2.460000000000000000e+03 3.477096158637296538e-06
2.520000000000000000e+03 3.374117363200377930e-06
2.580000000000000000e+03 3.232070819433075733e-06
2.640000000000000000e+03 3.068958938024871944e-06
2.700000000000000000e+03 2.912543124023817941e-06
2.760000000000000000e+03 2.775514764073496334e-06
2.820000000000000000e+03 2.658114037380523202e-06
2.880000000000000000e+03 2.550639827409000376e-06
2.940000000000000000e+03 2.440119504634278774e-06
3.000000000000000000e+03 2.331513581430369464e-06
3.060000000000000000e+03 2.228376779995812870e-06
3.120000000000000000e+03 2.145919456405844322e-06
3.180000000000000000e+03 2.103652909264096864e-06
3.240000000000000000e+03 2.074192271870935793e-06
3.300000000000000000e+03 2.009853028625205487e-06
3.360000000000000000e+03 1.922393355067072031e-06
3.420000000000000000e+03 1.837373636477448175e-06
3.480000000000000000e+03 1.755813166902491471e-06
3.540000000000000000e+03 1.670762176172665938e-06
3.600000000000000000e+03 1.587085680550155263e-06
3.660000000000000000e+03 1.500491795245265018e-06
3.720000000000000000e+03 1.423241136759220746e-06
3.780000000000000000e+03 1.376019139260817230e-06
3.840000000000000000e+03 1.340760102523652546e-06
3.900000000000000000e+03 1.288975393761576702e-06
3.960000000000000000e+03 1.233851582917166927e-06
4.020000000000000000e+03 1.194170206982036934e-06
4.080000000000000000e+03 1.170389186395601231e-06
4.140000000000000000e+03 1.159074777138761499e-06
4.200000000000000000e+03 1.151242398835424514e-06
4.260000000000000000e+03 1.137078424038109881e-06
4.320000000000000000e+03 1.112993567810767904e-06
4.380000000000000000e+03 1.064686458589897411e-06
4.440000000000000000e+03 1.011681608958925338e-06
4.500000000000000000e+03 9.836893518841427486e-07
4.560000000000000000e+03 9.621969130569943046e-07
4.620000000000000000e+03 9.292360432356279634e-07
4.680000000000000000e+03 8.918756562849526646e-07
4.740000000000000000e+03 8.445408669714252764e-07
4.800000000000000000e+03 7.958852926674928624e-07
4.860000000000000000e+03 7.639316150585134801e-07
4.920000000000000000e+03 7.437992592102445247e-07
4.980000000000000000e+03 7.234289255295123021e-07
5.040000000000000000e+03 7.105956189788533064e-07
5.100000000000000000e+03 7.218228904686680304e-07
5.160000000000000000e+03 7.417676249438694740e-07
5.220000000000000000e+03 7.448717703540293191e-07
5.280000000000000000e+03 7.340977356476199294e-07
5.340000000000000000e+03 7.155038314936301501e-07
5.400000000000000000e+03 6.931940404000571213e-07
5.460000000000000000e+03 6.707505788243935299e-07
5.520000000000000000e+03 6.527523645069819531e-07
5.580000000000000000e+03 6.427875931600222099e-07
5.640000000000000000e+03 6.294348537867987079e-07
5.700000000000000000e+03 6.078131930889463241e-07
5.760000000000000000e+03 5.823561004603590409e-07
5.820000000000000000e+03 5.459463521663664197e-07
5.880000000000000000e+03 5.077023653136484946e-07
5.940000000000000000e+03 4.862964565841704223e-07
6.000000000000000000e+03 4.746727139820494656e-07
6.060000000000000000e+03 4.546265327992164103e-07
6.120000000000000000e+03 4.348628843650845911e-07
6.180000000000000000e+03 4.430948753264320798e-07
6.240000000000000000e+03 4.666553227052524388e-07
6.300000000000000000e+03 4.812015170032925674e-07
6.360000000000000000e+03 4.884298700564421381e-07
6.420000000000000000e+03 4.704090744449042847e-07
6.480000000000000000e+03 4.304249692901884961e-07
6.540000000000000000e+03 4.043883359767149409e-07
6.600000000000000000e+03 3.963785405914262542e-07
6.660000000000000000e+03 3.918838598479754916e-07
6.720000000000000000e+03 3.873421476401535994e-07
6.780000000000000000e+03 3.797466751439410249e-07
6.840000000000000000e+03 3.677337936132165095e-07
6.900000000000000000e+03 3.531176712551903246e-07
6.960000000000000000e+03 3.443659894961555454e-07
7.020000000000000000e+03 3.484909079995666672e-07
7.080000000000000000e+03 3.567357460500473427e-07
7.140000000000000000e+03 3.600638469897915472e-07
7.200000000000000000e+03 3.648048065834491593e-07
7.260000000000000000e+03 3.861186932433332324e-07
7.320000000000000000e+03 4.027646669833619735e-07
7.380000000000000000e+03 3.807410432012797824e-07
7.440000000000000000e+03 3.390608472493561454e-07
7.500000000000000000e+03 3.033931745083373387e-07
7.560000000000000000e+03 2.835585317241077648e-07
7.620000000000000000e+03 2.836363423107853709e-07
7.680000000000000000e+03 2.767033174995899300e-07
7.740000000000000000e+03 2.490232372120056551e-07
7.800000000000000000e+03 2.218314609265155782e-07
7.860000000000000000e+03 1.999749352795306579e-07
7.920000000000000000e+03 1.834070186363991549e-07
7.980000000000000000e+03 1.798739662245418919e-07
8.040000000000000000e+03 1.870966323920068343e-07
8.100000000000000000e+03 2.009793471103212543e-07
8.160000000000000000e+03 2.205816530883910327e-07
8.220000000000000000e+03 2.439615131741753366e-07
8.280000000000000000e+03 2.681800112194996913e-07
8.340000000000000000e+03 2.926224074681580535e-07
8.400000000000000000e+03 3.084632740906386287e-07
8.460000000000000000e+03 3.094134999875643452e-07
8.520000000000000000e+03 3.042865430113543048e-07
8.580000000000000000e+03 2.881893594975509575e-07
8.640000000000000000e+03 2.568143511960663049e-07
8.700000000000000000e+03 2.162833304261239433e-07
8.760000000000000000e+03 1.802632370067012651e-07
8.820000000000000000e+03 1.668353413085641939e-07
8.880000000000000000e+03 1.659237885283150916e-07
8.940000000000000000e+03 1.561501240658393467e-07
9.000000000000000000e+03 1.470982756265198868e-07
9.060000000000000000e+03 1.611489999883003401e-07
9.120000000000000000e+03 1.895557290058450863e-07
9.180000000000000000e+03 2.106034327145853984e-07
9.240000000000000000e+03 2.246617816309415314e-07
9.300000000000000000e+03 2.385334952082855389e-07
9.360000000000000000e+03 2.520775019827318660e-07
9.420000000000000000e+03 2.655451829508548195e-07
9.480000000000000000e+03 2.742906962732947436e-07
9.540000000000000000e+03 2.678079272161922540e-07
9.600000000000000000e+03 2.489826149604940192e-07
9.660000000000000000e+03 2.299798569579264535e-07
9.720000000000000000e+03 2.203318485972938276e-07
9.780000000000000000e+03 2.228977577706237004e-07
9.840000000000000000e+03 2.254079675662046150e-07
9.900000000000000000e+03 2.187064655121094155e-07
9.960000000000000000e+03 2.034461428059251344e-07
1.002000000000000000e+04 1.824516046011285535e-07
1.008000000000000000e+04 1.668574295866457723e-07
1.014000000000000000e+04 1.717057750147873095e-07
1.020000000000000000e+04 1.813073710472725309e-07
1.026000000000000000e+04 1.671497137390824121e-07
1.032000000000000000e+04 1.435435878252335374e-07
1.038000000000000000e+04 1.349300767554406697e-07
1.044000000000000000e+04 1.348663744614221955e-07
1.050000000000000000e+04 1.378812151246513021e-07
1.056000000000000000e+04 1.419366985845836254e-07
1.062000000000000000e+04 1.266201548195724115e-07
1.068000000000000000e+04 1.018721801771908273e-07
1.074000000000000000e+04 1.056927986879905610e-07
1.080000000000000000e+04 1.287125562130416240e-07
1.086000000000000000e+04 1.415285785288933287e-07
1.092000000000000000e+04 1.473109032455038774e-07
1.098000000000000000e+04 1.499830345050532859e-07
1.104000000000000000e+04 1.500879208615977727e-07
1.110000000000000000e+04 1.558407735232035126e-07
1.116000000000000000e+04 1.626659309484264899e-07
1.122000000000000000e+04 1.688768932290215025e-07
1.128000000000000000e+04 1.700158985151745234e-07
1.134000000000000000e+04 1.438472400165878181e-07
1.140000000000000000e+04 1.067724127046948412e-07
1.146000000000000000e+04 9.234168168251639962e-08
1.152000000000000000e+04 9.097836543500714690e-08
1.158000000000000000e+04 9.376407389648233879e-08
1.164000000000000000e+04 1.003956708215542113e-07
1.170000000000000000e+04 9.621116040421650874e-08
1.176000000000000000e+04 9.102128078660361981e-08
1.182000000000000000e+04 1.054904842809808091e-07
1.188000000000000000e+04 1.179413706830824834e-07
1.194000000000000000e+04 1.104407636994218291e-07
1.200000000000000000e+04 1.028581956184770938e-07
1.206000000000000000e+04 9.456954790920216488e-08
1.212000000000000000e+04 8.408930506770273539e-08
1.218000000000000000e+04 8.847111947138386069e-08
1.224000000000000000e+04 1.024871607081580785e-07
1.230000000000000000e+04 1.241147089379076144e-07
1.236000000000000000e+04 1.476824483719977815e-07
1.242000000000000000e+04 1.486693695889699681e-07
1.248000000000000000e+04 1.390861412793366834e-07
1.254000000000000000e+04 1.437192908162789390e-07
1.260000000000000000e+04 1.481947553891767745e-07
1.266000000000000000e+04 1.271409635023266539e-07
1.272000000000000000e+04 9.405628925568398383e-08
1.278000000000000000e+04 8.738401848368271539e-08
1.284000000000000000e+04 1.108508386226299767e-07
1.290000000000000000e+04 1.422805430725352812e-07
1.296000000000000000e+04 1.630663175285670062e-07
1.302000000000000000e+04 1.671764340759052167e-07
1.308000000000000000e+04 1.594972577287819544e-07
1.314000000000000000e+04 1.396654526545961395e-07
1.320000000000000000e+04 1.220688517249851559e-07
1.326000000000000000e+04 1.302444324472370128e-07
1.332000000000000000e+04 1.452095415680152823e-07
1.338000000000000000e+04 1.383861956897695530e-07
1.344000000000000000e+04 1.139481792609975423e-07
1.350000000000000000e+04 7.849366155249226386e-08
1.356000000000000000e+04 5.131275455753925296e-08
1.362000000000000000e+04 5.922479512562399253e-08
1.368000000000000000e+04 8.507740149888328171e-08
1.374000000000000000e+04 9.320721769540130627e-08
1.380000000000000000e+04 9.184972591912143351e-08
1.386000000000000000e+04 1.139977732638602888e-07
1.392000000000000000e+04 1.384358355544420055e-07
1.398000000000000000e+04 1.305228834790293281e-07
1.404000000000000000e+04 1.139466887461100975e-07
1.410000000000000000e+04 1.065210489084820577e-07
1.416000000000000000e+04 9.935185781376661427e-08
1.422000000000000000e+04 9.265633501692275569e-08
1.428000000000000000e+04 8.838917557249525991e-08
1.434000000000000000e+04 1.030154964897639385e-07
1.440000000000000000e+04 1.217491994343529841e-07
1.446000000000000000e+04 9.142512421301171280e-08
1.452000000000000000e+04 3.079338089598722824e-08
1.458000000000000000e+04 -6.586571923520671151e-09
1.464000000000000000e+04 -2.125151436332036454e-08
1.470000000000000000e+04 -2.658968870315285207e-08
1.476000000000000000e+04 -2.805500200174504278e-08
1.482000000000000000e+04 -3.639934909015670060e-08
1.488000000000000000e+04 -3.538618908553725893e-08
1.494000000000000000e+04 -8.185756350531647740e-09
1.500000000000000000e+04 2.236852882850359703e-08
1.506000000000000000e+04 3.982579532014566420e-08
1.512000000000000000e+04 5.840274200560417585e-08
1.518000000000000000e+04 8.157758756057361919e-08
1.524000000000000000e+04 1.072426413528439728e-07
1.530000000000000000e+04 1.422827272492173887e-07
1.536000000000000000e+04 1.765149141788833480e-07
1.542000000000000000e+04 2.066226354942533427e-07
1.548000000000000000e+04 2.209941758951616766e-07
1.554000000000000000e+04 1.791284567547596404e-07
1.560000000000000000e+04 1.180702657864694360e-07
1.566000000000000000e+04 1.127184647035002956e-07
1.572000000000000000e+04 1.277193232406687029e-07
1.578000000000000000e+04 1.016843122942506757e-07
1.584000000000000000e+04 5.412743059295584290e-08
1.590000000000000000e+04 2.465940942067423869e-08
1.596000000000000000e+04 1.713609502317081712e-08
1.602000000000000000e+04 1.840835803431732158e-08
1.608000000000000000e+04 2.285087077232017671e-08
1.614000000000000000e+04 4.382635905679499190e-08
1.620000000000000000e+04 7.360429258087645690e-08
1.626000000000000000e+04 7.633014542131333346e-08
1.632000000000000000e+04 6.039638535150030369e-08
1.638000000000000000e+04 5.881810825521712070e-08
1.644000000000000000e+04 6.755642124635363468e-08
1.650000000000000000e+04 6.349971671063455178e-08
1.656000000000000000e+04 5.012223479791226147e-08
1.662000000000000000e+04 4.974105292399981218e-08
1.668000000000000000e+04 7.600825162589845145e-08
1.674000000000000000e+04 1.318558792229075966e-07
1.680000000000000000e+04 1.762893076187136809e-07
1.686000000000000000e+04 1.749476726241779574e-07
1.692000000000000000e+04 1.555428024847353315e-07
1.698000000000000000e+04 1.310193222501393579e-07
1.704000000000000000e+04 8.768538904274647285e-08
1.710000000000000000e+04 3.042664554602873277e-08
1.716000000000000000e+04 -1.786272082078081140e-08
1.722000000000000000e+04 -4.469332825507895000e-08
1.728000000000000000e+04 -6.167540154110306982e-08
1.734000000000000000e+04 -8.173309408119703318e-08
1.740000000000000000e+04 -8.369213456080327159e-08
1.746000000000000000e+04 -2.388283992284708563e-08
1.752000000000000000e+04 5.964591132158933132e-08
1.758000000000000000e+04 8.976732243833514544e-08
1.764000000000000000e+04 8.281524197390384974e-08
1.770000000000000000e+04 8.911251077279672447e-08
1.776000000000000000e+04 9.641009248925747066e-08
1.782000000000000000e+04 6.953507918893800684e-08
1.788000000000000000e+04 2.520036871157815695e-08
1.794000000000000000e+04 -2.002543436768755437e-08
1.800000000000000000e+04 -5.785909405475742327e-08
1.806000000000000000e+04 -6.940909631966233357e-08
1.812000000000000000e+04 -5.165007517735538819e-08
1.818000000000000000e+04 -2.388967908564798487e-09
1.824000000000000000e+04 5.625841911378419017e-08
1.830000000000000000e+04 9.611162270113660354e-08
1.836000000000000000e+04 1.233059901898046211e-07
1.842000000000000000e+04 1.511966457741718447e-07
1.848000000000000000e+04 1.773633608708376770e-07
1.854000000000000000e+04 2.043082563677143742e-07
1.860000000000000000e+04 2.131492084771202772e-07
1.866000000000000000e+04 1.627098094018434692e-07
1.872000000000000000e+04 9.334738911397077480e-08
1.878000000000000000e+04 6.083113975538975132e-08
1.884000000000000000e+04 3.728142408052082233e-08
1.890000000000000000e+04 1.017176367694901492e-08
1.896000000000000000e+04 -1.680899015578848081e-09
1.902000000000000000e+04 -3.759387029918700125e-09
1.908000000000000000e+04 -4.401133762987896603e-09
1.914000000000000000e+04 -1.250111673669248224e-09
1.920000000000000000e+04 2.763453934203259902e-09
1.926000000000000000e+04 1.957494930500865501e-08
1.932000000000000000e+04 4.714210592391317464e-08
1.938000000000000000e+04 4.426917943588700439e-08
1.944000000000000000e+04 1.966262021801482921e-08
1.950000000000000000e+04 8.598244761320873004e-09
1.956000000000000000e+04 7.799306081177070915e-09
1.962000000000000000e+04 1.850083872351193516e-08
1.968000000000000000e+04 3.684441670729251136e-08
1.974000000000000000e+04 3.670645812916632227e-08
1.980000000000000000e+04 3.459371121170469751e-08
1.986000000000000000e+04 6.217572711420446233e-08
1.992000000000000000e+04 9.847683983670954851e-08
1.998000000000000000e+04 1.262113525643306428e-07
2.004000000000000000e+04 1.398577003556879589e-07
2.010000000000000000e+04 1.223372704469566469e-07
2.016000000000000000e+04 9.351276169337433305e-08
2.022000000000000000e+04 7.852210171579535884e-08
2.028000000000000000e+04 6.817348276721516571e-08
2.034000000000000000e+04 6.793163532976820560e-08
2.040000000000000000e+04 6.622174007602417709e-08
2.046000000000000000e+04 1.769957254776447978e-08
2.052000000000000000e+04 -4.061503992361381731e-08
2.058000000000000000e+04 -4.022879030081878979e-08
2.064000000000000000e+04 -9.351224000813302929e-09
2.070000000000000000e+04 1.039578799919005403e-08
2.076000000000000000e+04 1.898147230956770338e-08
2.082000000000000000e+04 2.028914650534693116e-08
2.088000000000000000e+04 3.068952070250929864e-08
2.094000000000000000e+04 6.619902692892031840e-08
2.100000000000000000e+04 1.052111561391140956e-07
2.106000000000000000e+04 1.203569557414509712e-07
2.112000000000000000e+04 1.151844578139068099e-07
2.118000000000000000e+04 9.499727396366138815e-08
2.124000000000000000e+04 7.087357263753831247e-08
2.130000000000000000e+04 6.106752388247704568e-08
2.136000000000000000e+04 5.635619112996185646e-08
2.142000000000000000e+04 3.935677054904089247e-08
2.148000000000000000e+04 1.013147392266155955e-08
2.154000000000000000e+04 -3.230228600899683210e-08
2.160000000000000000e+04 -5.855249284684542058e-08
2.166000000000000000e+04 -1.875223691744087740e-08
2.172000000000000000e+04 4.575514209205026729e-08
2.178000000000000000e+04 6.074920158964657894e-08
2.184000000000000000e+04 4.563616464205166735e-08
2.190000000000000000e+04 4.376018594697920752e-08
2.196000000000000000e+04 5.060492643931454311e-08
2.202000000000000000e+04 6.312455995439539852e-08
2.208000000000000000e+04 7.636106213124623770e-08
2.214000000000000000e+04 6.298744408966827370e-08
2.220000000000000000e+04 3.403631040020209100e-08
2.226000000000000000e+04 1.244656964276743201e-08
2.232000000000000000e+04 -1.126330180743299487e-09
2.238000000000000000e+04 8.280908500117127569e-09
2.244000000000000000e+04 3.078990111806308315e-08
2.250000000000000000e+04 2.861221936658701407e-08
2.256000000000000000e+04 1.304487361198277303e-08
2.262000000000000000e+04 2.180485638968628489e-08
2.268000000000000000e+04 4.864466488415283136e-08
2.274000000000000000e+04 7.454998387559456114e-08
2.280000000000000000e+04 8.447357689317369369e-08
2.286000000000000000e+04 5.608116254799307694e-08
2.292000000000000000e+04 2.565609350697884005e-08
2.298000000000000000e+04 4.196026935134970616e-08
2.304000000000000000e+04 7.252317658345644765e-08
2.310000000000000000e+04 9.057428696571112338e-08
2.316000000000000000e+04 9.700227961625488035e-08
2.322000000000000000e+04 6.576876699892117121e-08
2.328000000000000000e+04 2.174763783282610768e-08
2.334000000000000000e+04 1.306038069533166368e-08
2.340000000000000000e+04 2.725000953958852386e-08
2.346000000000000000e+04 5.640857124710370869e-08
2.352000000000000000e+04 8.658479316685230298e-08
2.358000000000000000e+04 8.286801765020982706e-08
2.364000000000000000e+04 6.681918986439309431e-08
2.370000000000000000e+04 6.843729809247189877e-08
2.376000000000000000e+04 6.859286193946120517e-08
2.382000000000000000e+04 6.379641507893903129e-08
