# time [s],mass_flux
0.000000000000000000e+00 3.218513478965848368e-05
6.000000000000000000e+01 3.175427386949584903e-05
1.200000000000000000e+02 3.052162389703260304e-05
1.800000000000000000e+02 2.860136813376475026e-05
2.400000000000000000e+02 2.623173127706426332e-05
3.000000000000000000e+02 2.361906388223899861e-05
3.600000000000000000e+02 2.090947994030235344e-05
4.200000000000000000e+02 1.827660830132378088e-05
4.800000000000000000e+02 1.595537943296983460e-05
5.400000000000000000e+02 1.419633008771099216e-05
6.000000000000000000e+02 1.296708082715445638e-05
6.600000000000000000e+02 1.202378777629865502e-05
7.200000000000000000e+02 1.117545580902958779e-05
7.800000000000000000e+02 1.045287329022745100e-05
8.400000000000000000e+02 9.966498474675352463e-06
9.000000000000000000e+02 9.605839742191493778e-06
9.600000000000000000e+02 9.252067945260571878e-06
1.020000000000000000e+03 8.838198243624196382e-06
1.080000000000000000e+03 8.421425069059565631e-06
1.140000000000000000e+03 8.063711036274757359e-06
1.200000000000000000e+03 7.693665412541992690e-06
1.260000000000000000e+03 7.361464013193509291e-06
1.320000000000000000e+03 7.036890377431892412e-06
1.380000000000000000e+03 6.710544932781386516e-06
1.440000000000000000e+03 6.409810387102790528e-06
1.500000000000000000e+03 6.107498252761929411e-06
1.560000000000000000e+03 5.820784204909424663e-06
1.620000000000000000e+03 5.558391936596318375e-06
1.680000000000000000e+03 5.295033863580266523e-06
1.740000000000000000e+03 5.030883316163570128e-06
1.800000000000000000e+03 4.825469465814849390e-06
1.860000000000000000e+03 4.611704422439956942e-06
1.920000000000000000e+03 4.396935483878272644e-06
1.980000000000000000e+03 4.183030210400022867e-06
2.040000000000000000e+03 3.966317047508058135e-06
2.100000000000000000e+03 3.777842078694015201e-06
2.160000000000000000e+03 3.618707178261633406e-06
2.220000000000000000e+03 3.493653450741880181e-06
2.280000000000000000e+03 3.342042924838600946e-06
2.340000000000000000e+03 3.194165757918603031e-06
2.400000000000000000e+03 3.059775772471396396e-06
2.460000000000000000e+03 2.916286243162978563e-06
2.520000000000000000e+03 2.795112168737923056e-06
2.580000000000000000e+03 2.675889714378972953e-06
2.640000000000000000e+03 2.552546308565630362e-06
2.700000000000000000e+03 2.451677163309144182e-06
2.760000000000000000e+03 2.344280215009667251e-06
2.820000000000000000e+03 2.237664636764990841e-06
2.880000000000000000e+03 2.151343238390438129e-06
2.940000000000000000e+03 2.071569250387699520e-06
3.000000000000000000e+03 1.986633332641779459e-06
3.060000000000000000e+03 1.917674301290705655e-06
3.120000000000000000e+03 1.842090855041518886e-06
3.180000000000000000e+03 1.775835638592752073e-06
3.240000000000000000e+03 1.696995570683101830e-06
3.300000000000000000e+03 1.629667856923601879e-06
3.360000000000000000e+03 1.576831908764541896e-06
3.420000000000000000e+03 1.496618746004041215e-06
3.480000000000000000e+03 1.454403525574726654e-06
3.540000000000000000e+03 1.419591279815944670e-06
3.600000000000000000e+03 1.376347418706521527e-06
3.660000000000000000e+03 1.337678545221464507e-06
3.720000000000000000e+03 1.283071282534342747e-06
3.780000000000000000e+03 1.231237487161315409e-06
3.840000000000000000e+03 1.189560086584911256e-06
3.900000000000000000e+03 1.153163732682946753e-06
3.960000000000000000e+03 1.122070049545297478e-06
4.020000000000000000e+03 1.068709709283010644e-06
4.080000000000000000e+03 1.011315445052989296e-06
4.140000000000000000e+03 9.667887071434342414e-07
4.200000000000000000e+03 9.330745389834575302e-07
4.260000000000000000e+03 9.046599017278979888e-07
4.320000000000000000e+03 8.957057373732079171e-07
4.380000000000000000e+03 8.916151260672695443e-07
4.440000000000000000e+03 8.790897240577573473e-07
4.500000000000000000e+03 8.424100767045590361e-07
4.560000000000000000e+03 8.197195663752279704e-07
4.620000000000000000e+03 7.801064557523902175e-07
4.680000000000000000e+03 7.399438911890702210e-07
4.740000000000000000e+03 6.845417178804077348e-07
4.800000000000000000e+03 6.632628388904473524e-07
4.860000000000000000e+03 6.451095491338054665e-07
4.920000000000000000e+03 6.497903590382460546e-07
4.980000000000000000e+03 6.465523813260584878e-07
5.040000000000000000e+03 6.224380465557283769e-07
5.100000000000000000e+03 6.139073576591545452e-07
5.160000000000000000e+03 5.970662948508533723e-07
5.220000000000000000e+03 5.905402791323285681e-07
5.280000000000000000e+03 5.962887009941660613e-07
5.340000000000000000e+03 6.053761262272751006e-07
5.400000000000000000e+03 5.839299866320139153e-07
5.460000000000000000e+03 5.682799232767713399e-07
5.520000000000000000e+03 5.377821569080638162e-07
5.580000000000000000e+03 5.047413537054908729e-07
5.640000000000000000e+03 5.072698384231439480e-07
5.700000000000000000e+03 4.772249230129067162e-07
5.760000000000000000e+03 4.439164141093889937e-07
5.820000000000000000e+03 4.623051832208072072e-07
5.880000000000000000e+03 4.240859866088496965e-07
5.940000000000000000e+03 4.370092128024136543e-07
6.000000000000000000e+03 4.285170489859240237e-07
6.060000000000000000e+03 4.079538501752127223e-07
6.120000000000000000e+03 3.927106705838388688e-07
6.180000000000000000e+03 3.920942883168291827e-07
6.240000000000000000e+03 3.933738490597179080e-07
6.300000000000000000e+03 3.747807672211372750e-07
6.360000000000000000e+03 3.836732853631864448e-07
6.420000000000000000e+03 3.725040873553343807e-07
6.480000000000000000e+03 3.325274869231347413e-07
6.540000000000000000e+03 3.135789164040045053e-07
6.600000000000000000e+03 3.127407930955556905e-07
6.660000000000000000e+03 3.087107568752206212e-07
6.720000000000000000e+03 2.942381080401546412e-07
6.780000000000000000e+03 2.780679130053975066e-07
6.840000000000000000e+03 2.610638436773594371e-07
6.900000000000000000e+03 2.845112326469540973e-07
6.960000000000000000e+03 2.853155501722843516e-07
7.020000000000000000e+03 2.920436996033476939e-07
7.080000000000000000e+03 3.144987863526269171e-07
7.140000000000000000e+03 3.119087086617932112e-07
7.200000000000000000e+03 2.968649146133297915e-07
7.260000000000000000e+03 2.967831185364952858e-07
7.320000000000000000e+03 2.763487008847195132e-07
7.380000000000000000e+03 2.544781021691560631e-07
7.440000000000000000e+03 2.407437615470830775e-07
7.500000000000000000e+03 2.189181197441154632e-07
7.560000000000000000e+03 2.106126311856374542e-07
7.620000000000000000e+03 2.027510721749798379e-07
7.680000000000000000e+03 1.856471053571388211e-07
7.740000000000000000e+03 1.809424175593977741e-07
7.800000000000000000e+03 1.826891760249412876e-07
7.860000000000000000e+03 1.904628519150227914e-07
7.920000000000000000e+03 1.950833098324866220e-07
7.980000000000000000e+03 2.135210212096596267e-07
8.040000000000000000e+03 2.313095674947012704e-07
8.100000000000000000e+03 2.576252470415931046e-07
8.160000000000000000e+03 2.562584648684741898e-07
8.220000000000000000e+03 2.322978006999536921e-07
8.280000000000000000e+03 2.162388849888772808e-07
8.340000000000000000e+03 1.999397706260987117e-07
8.400000000000000000e+03 1.898695350059845255e-07
8.460000000000000000e+03 1.596744399807052899e-07
8.520000000000000000e+03 1.425259358277235253e-07
8.580000000000000000e+03 1.223397496465677094e-07
8.640000000000000000e+03 1.105155885169046051e-07
8.700000000000000000e+03 1.182350058018974777e-07
8.760000000000000000e+03 1.149191438448556631e-07
8.820000000000000000e+03 1.212369895112949235e-07
8.880000000000000000e+03 1.419342452570901904e-07
8.940000000000000000e+03 1.493886834616447122e-07
9.000000000000000000e+03 1.660306066426605331e-07
9.060000000000000000e+03 1.629809698227401371e-07
9.120000000000000000e+03 1.622916482417053533e-07
9.180000000000000000e+03 1.528998847633192802e-07
9.240000000000000000e+03 1.536110776174535868e-07
9.300000000000000000e+03 1.437566062767029080e-07
9.360000000000000000e+03 1.484861847848731460e-07
9.420000000000000000e+03 1.510653800785803700e-07
9.480000000000000000e+03 1.422932135158991220e-07
9.540000000000000000e+03 1.261054076316463627e-07
9.600000000000000000e+03 1.384772594618307811e-07
9.660000000000000000e+03 1.442828300704021636e-07
9.720000000000000000e+03 1.522527858688349346e-07
9.780000000000000000e+03 1.497804725737045209e-07
9.840000000000000000e+03 8.094538519731641260e-08
9.900000000000000000e+03 -4.460623854045791388e-10
9.960000000000000000e+03 -1.624030215499826337e-08
1.002000000000000000e+04 -2.834934269196681198e-08
1.008000000000000000e+04 2.649224364588868637e-08
1.014000000000000000e+04 1.839336696692109017e-07
1.020000000000000000e+04 4.401636332375496377e-07
1.026000000000000000e+04 7.175123555481707559e-07
1.032000000000000000e+04 9.847657737965765865e-07
1.038000000000000000e+04 1.201707347290319845e-06
1.044000000000000000e+04 1.388787014048217196e-06
1.050000000000000000e+04 1.524807741661321838e-06
1.056000000000000000e+04 1.575987481470730130e-06
1.062000000000000000e+04 1.534999912005318962e-06
1.068000000000000000e+04 1.436037648950283171e-06
1.074000000000000000e+04 1.264371306163905757e-06
1.080000000000000000e+04 1.032493449390915360e-06
1.086000000000000000e+04 7.737539188943504592e-07
1.092000000000000000e+04 5.132849925977972124e-07
1.098000000000000000e+04 3.130130517223607864e-07
1.104000000000000000e+04 2.077941160629371271e-07
1.110000000000000000e+04 1.561876598319543075e-07
1.116000000000000000e+04 1.240881344505432854e-07
1.122000000000000000e+04 1.748855009724643732e-07
1.128000000000000000e+04 1.984466056043471023e-07
1.134000000000000000e+04 1.878418433715399992e-07
1.140000000000000000e+04 1.790640524413487650e-07
1.146000000000000000e+04 1.836434652781446208e-07
1.152000000000000000e+04 1.850091344933515829e-07
1.158000000000000000e+04 1.938607723434919620e-07
1.164000000000000000e+04 1.780905690990195292e-07
1.170000000000000000e+04 1.829092045308435542e-07
1.176000000000000000e+04 2.069528563257286845e-07
1.182000000000000000e+04 2.169258906538152734e-07
1.188000000000000000e+04 2.040287150301521017e-07
1.194000000000000000e+04 2.094559813186594628e-07
1.200000000000000000e+04 2.072115696299138003e-07
1.206000000000000000e+04 2.046233464465890719e-07
1.212000000000000000e+04 2.047632939463746349e-07
1.218000000000000000e+04 1.885514542533155637e-07
1.224000000000000000e+04 1.710508509981175252e-07
1.230000000000000000e+04 1.390924996158610818e-07
1.236000000000000000e+04 1.386840554290535154e-07
1.242000000000000000e+04 1.376921575750535003e-07
1.248000000000000000e+04 1.277420326893258319e-07
1.254000000000000000e+04 1.348731553199809623e-07
1.260000000000000000e+04 1.221750660841915495e-07
1.266000000000000000e+04 1.375497192296305499e-07
1.272000000000000000e+04 1.562237402434535145e-07
1.278000000000000000e+04 1.701131597775521883e-07
1.284000000000000000e+04 1.684359649913914642e-07
1.290000000000000000e+04 1.615936727148019314e-07
1.296000000000000000e+04 1.530419897284660840e-07
1.302000000000000000e+04 1.513563095880440521e-07
1.308000000000000000e+04 1.540110820837132933e-07
1.314000000000000000e+04 1.371606123715737020e-07
1.320000000000000000e+04 1.133053965394368119e-07
1.326000000000000000e+04 1.024817035476226148e-07
1.332000000000000000e+04 1.024096414169043193e-07
1.338000000000000000e+04 1.048711356951717717e-07
1.344000000000000000e+04 1.079540256220767457e-07
1.350000000000000000e+04 1.342139241690395352e-07
1.356000000000000000e+04 1.198213385934860024e-07
1.362000000000000000e+04 1.066850823465678831e-07
1.368000000000000000e+04 1.098453089124392242e-07
1.374000000000000000e+04 1.057579452129399789e-07
1.380000000000000000e+04 1.125686956506621747e-07
1.386000000000000000e+04 1.115637820187355042e-07
1.392000000000000000e+04 1.135802363264659774e-07
1.398000000000000000e+04 1.195331204931179394e-07
1.404000000000000000e+04 1.190882909451258945e-07
1.410000000000000000e+04 1.176784672118942153e-07
1.416000000000000000e+04 1.139500337431433622e-07
1.422000000000000000e+04 9.645246133383750926e-08
1.428000000000000000e+04 7.482513901718405979e-08
1.434000000000000000e+04 8.040456745638771990e-08
1.440000000000000000e+04 1.012494460559317151e-07
1.446000000000000000e+04 9.922226092057970983e-08
1.452000000000000000e+04 9.590234534077022358e-08
1.458000000000000000e+04 8.729864125487708537e-08
1.464000000000000000e+04 6.795382243358255069e-08
1.470000000000000000e+04 5.743660151572045217e-08
1.476000000000000000e+04 8.995877339821122089e-08
1.482000000000000000e+04 9.341333044134393312e-08
1.488000000000000000e+04 7.829833174519932474e-08
1.494000000000000000e+04 5.176514627602831176e-08
1.500000000000000000e+04 2.823936566665219513e-08
1.506000000000000000e+04 1.113100470708391560e-08
1.512000000000000000e+04 -4.088416898861823957e-09
1.518000000000000000e+04 -2.338625805263390070e-09
1.524000000000000000e+04 4.258335355557779890e-08
1.530000000000000000e+04 3.589981589561319294e-08
1.536000000000000000e+04 4.086548098945214367e-08
1.542000000000000000e+04 6.217122493367140778e-08
1.548000000000000000e+04 7.337336039555178700e-08
1.554000000000000000e+04 7.152015296658396160e-08
1.560000000000000000e+04 6.919230409924914610e-08
1.566000000000000000e+04 6.220710344315012710e-08
1.572000000000000000e+04 4.810196345263202779e-08
1.578000000000000000e+04 6.030494355039655772e-08
1.584000000000000000e+04 5.528706201228875128e-08
1.590000000000000000e+04 3.127706388780128455e-08
1.596000000000000000e+04 1.461169506709577018e-08
1.602000000000000000e+04 2.619597317890751957e-08
1.608000000000000000e+04 4.797118581422275807e-08
1.614000000000000000e+04 6.805641858984211802e-08
1.620000000000000000e+04 6.214914415293819349e-08
1.626000000000000000e+04 7.755291674225051751e-08
1.632000000000000000e+04 7.731415555567285008e-08
1.638000000000000000e+04 6.025858593315980048e-08
1.644000000000000000e+04 1.168358996770059614e-08
1.650000000000000000e+04 2.862207336380410176e-08
1.656000000000000000e+04 1.418416707266016220e-08
1.662000000000000000e+04 7.076476138099463745e-09
1.668000000000000000e+04 2.577982194831316553e-09
1.674000000000000000e+04 2.052593753419983824e-09
1.680000000000000000e+04 -1.296005521685670604e-08
1.686000000000000000e+04 6.300673408630462299e-09
1.692000000000000000e+04 1.688581943934498659e-08
1.698000000000000000e+04 2.501780823599810070e-08
1.704000000000000000e+04 4.721980224577209391e-08
1.710000000000000000e+04 4.656335222222430610e-08
1.716000000000000000e+04 3.612460834090492842e-08
1.722000000000000000e+04 4.876872291530397043e-08
1.728000000000000000e+04 5.981767709032910852e-08
1.734000000000000000e+04 5.769625740425165072e-08
1.740000000000000000e+04 4.889342872127572309e-08
1.746000000000000000e+04 2.650706015827019697e-08
1.752000000000000000e+04 3.984498997681706614e-08
1.758000000000000000e+04 3.402678513967745206e-08
1.764000000000000000e+04 4.524620823061180760e-08
1.770000000000000000e+04 2.058384050616237116e-08
1.776000000000000000e+04 2.491377581563355670e-08
1.782000000000000000e+04 2.325187469527854913e-08
1.788000000000000000e+04 2.969309391368301498e-08
1.794000000000000000e+04 1.779308684957516464e-08
1.800000000000000000e+04 3.600620126905317276e-08
1.806000000000000000e+04 4.467579569252440837e-09
1.812000000000000000e+04 -1.394758109799196682e-08
1.818000000000000000e+04 -3.278270468731509263e-08
1.824000000000000000e+04 -4.200475474288299261e-08
1.830000000000000000e+04 -3.204864168657672271e-08
1.836000000000000000e+04 -1.926723904968380592e-08
1.842000000000000000e+04 -2.904348262433293953e-08
1.848000000000000000e+04 -3.216878284346657961e-08
1.854000000000000000e+04 -7.276189990884496405e-09
1.860000000000000000e+04 1.339333433947747125e-08
1.866000000000000000e+04 4.102018499810339608e-08
1.872000000000000000e+04 5.565291789860304489e-08
1.878000000000000000e+04 8.662113770001875824e-08
1.884000000000000000e+04 8.015938819977412476e-08
1.890000000000000000e+04 7.248550785899808475e-08
1.896000000000000000e+04 3.565861597580325174e-08
1.902000000000000000e+04 -2.910870208231566230e-09
1.908000000000000000e+04 -2.449089844115869553e-08
1.914000000000000000e+04 -4.627589800177695353e-08
1.920000000000000000e+04 -8.190048924946419883e-08
1.926000000000000000e+04 -8.653519677813942645e-08
1.932000000000000000e+04 -1.154513843303130801e-07
1.938000000000000000e+04 -1.292191595419502697e-07
1.944000000000000000e+04 -1.208705809940469859e-07
1.950000000000000000e+04 -1.124058522674380005e-07
1.956000000000000000e+04 -8.772165697960984847e-08
1.962000000000000000e+04 -4.196946297471158204e-08
1.968000000000000000e+04 -7.882413844914355728e-09
1.974000000000000000e+04 1.760661535919424394e-08
1.980000000000000000e+04 2.502991785670808164e-08
1.986000000000000000e+04 1.221426841169323747e-08
1.992000000000000000e+04 1.284186798407702738e-08
1.998000000000000000e+04 1.705346286153246943e-08
2.004000000000000000e+04 2.020826787679482342e-08
2.010000000000000000e+04 1.802867775318221876e-09
2.016000000000000000e+04 -2.747347848844266812e-08
2.022000000000000000e+04 -6.074128884555381621e-08
2.028000000000000000e+04 -7.978606361814881676e-08
2.034000000000000000e+04 -6.550671268065498339e-08
2.040000000000000000e+04 -6.033172943253518761e-08
2.046000000000000000e+04 -3.268068820666063347e-08
2.052000000000000000e+04 1.527134295007235269e-08
2.058000000000000000e+04 1.379327124371673220e-08
2.064000000000000000e+04 2.300629969745244146e-08
2.070000000000000000e+04 1.948955401378514483e-08
2.076000000000000000e+04 2.337234939135607309e-08
2.082000000000000000e+04 2.212930045816897747e-08
2.088000000000000000e+04 1.969318272364439869e-08
2.094000000000000000e+04 3.902349075729909949e-09
2.100000000000000000e+04 2.013636075288361031e-09
2.106000000000000000e+04 -4.772397868749196626e-09
2.112000000000000000e+04 -1.902863267865635286e-08
2.118000000000000000e+04 -3.717323335542093031e-08
2.124000000000000000e+04 -4.072840159272160614e-08
2.130000000000000000e+04 -1.568246978020722092e-08
2.136000000000000000e+04 1.387283141969154443e-08
2.142000000000000000e+04 2.274969371599654331e-08
2.148000000000000000e+04 2.354166833399546397e-08
2.154000000000000000e+04 1.375626437269897582e-08
2.160000000000000000e+04 6.114714712462018269e-09
2.166000000000000000e+04 1.049237184652272461e-09
2.172000000000000000e+04 6.665846598593773773e-09
2.178000000000000000e+04 3.317804436370241008e-08
2.184000000000000000e+04 2.352064011459352940e-08
2.190000000000000000e+04 8.829253196600243505e-09
2.196000000000000000e+04 -2.883194327560699611e-08
2.202000000000000000e+04 -1.389518840883926379e-08
2.208000000000000000e+04 -2.588208098767331391e-08
2.214000000000000000e+04 -2.380846525714359207e-08
2.220000000000000000e+04 -3.747822135597102980e-08
2.226000000000000000e+04 -4.679219058947396550e-08
2.232000000000000000e+04 -4.899864128279216903e-08
2.238000000000000000e+04 -3.952713017886008819e-08
2.244000000000000000e+04 -4.956994241180205550e-08
2.250000000000000000e+04 -6.933070102161833343e-08
2.256000000000000000e+04 -7.356138785562679168e-08
2.262000000000000000e+04 -5.738397200577799277e-08
2.268000000000000000e+04 -4.111981750727265136e-08
2.274000000000000000e+04 -1.852548203472267992e-08
2.280000000000000000e+04 -1.700565482671562366e-08
2.286000000000000000e+04 -1.988241804696314936e-08
2.292000000000000000e+04 -2.142306462808371493e-08
2.298000000000000000e+04 -2.624029502235586642e-08
2.304000000000000000e+04 -1.263633746073098662e-08
2.310000000000000000e+04 -8.699232076434924886e-09
2.316000000000000000e+04 -3.814942271246838124e-10
2.322000000000000000e+04 -2.138131545069378300e-08
2.328000000000000000e+04 -6.132183838842569966e-09
2.334000000000000000e+04 -1.427495080562003016e-08
2.340000000000000000e+04 -1.899030287496264551e-09
2.346000000000000000e+04 1.105253835398209117e-08
2.352000000000000000e+04 2.271218211439348062e-08
2.358000000000000000e+04 9.458856063485166664e-09
2.364000000000000000e+04 5.479797351065672522e-09
2.370000000000000000e+04 -3.694237084045804559e-09
2.376000000000000000e+04 -1.541059193153502878e-08
2.382000000000000000e+04 -3.109472839506282457e-08
